#Longshot inviscid contour determined from turbulent CFD using SST model. Valid for experiment at low Reynolds number at t=10ms.
#distance_from_throat(m)	radius(m)
-6.4900000e-02	3.8095185e-02
-6.4600965e-02	3.8094723e-02
-6.4304920e-02	3.8094221e-02
-6.4011836e-02	3.8093706e-02
-6.3721683e-02	3.8093207e-02
-6.3434431e-02	3.8092751e-02
-6.3150051e-02	3.8092366e-02
-6.2868516e-02	3.8092060e-02
-6.2589795e-02	3.8091865e-02
-6.2313861e-02	3.8091717e-02
-6.2040688e-02	3.8091644e-02
-6.1770246e-02	3.8091621e-02
-6.1502508e-02	3.8091659e-02
-6.1237448e-02	3.8091718e-02
-6.0975038e-02	3.8091812e-02
-6.0715252e-02	3.8091966e-02
-6.0458065e-02	3.8092134e-02
-6.0203449e-02	3.8092331e-02
-5.9951379e-02	3.8092565e-02
-5.9701830e-02	3.8092810e-02
-5.9454777e-02	3.8093121e-02
-5.9210194e-02	3.8093439e-02
-5.8968057e-02	3.8093741e-02
-5.8728341e-02	3.8094117e-02
-5.8491022e-02	3.8094495e-02
-5.8256077e-02	3.8094901e-02
-5.8023481e-02	3.8095275e-02
-5.7793211e-02	3.8095589e-02
-5.7565244e-02	3.8095907e-02
-5.7339556e-02	3.8096015e-02
-5.7116125e-02	3.8095987e-02
-5.6894929e-02	3.8095857e-02
-5.6675944e-02	3.8095558e-02
-5.6459150e-02	3.8095331e-02
-5.6244524e-02	3.8095017e-02
-5.6032044e-02	3.8094868e-02
-5.5821688e-02	3.8094821e-02
-5.5613436e-02	3.8094792e-02
-5.5407266e-02	3.8094849e-02
-5.5203158e-02	3.8094710e-02
-5.5001091e-02	3.8094175e-02
-5.4766425e-02	3.8092991e-02
-5.4522183e-02	3.8091186e-02
-5.4267975e-02	3.8088327e-02
-5.4003401e-02	3.8084536e-02
-5.3728052e-02	3.8079012e-02
-5.3441519e-02	3.8071185e-02
-5.3143398e-02	3.8060052e-02
-5.2833298e-02	3.8044678e-02
-5.2510857e-02	3.8023415e-02
-5.2175753e-02	3.7995093e-02
-5.1827722e-02	3.7957951e-02
-5.1466574e-02	3.7910028e-02
-5.1092213e-02	3.7849438e-02
-5.0704655e-02	3.7773944e-02
-5.0304034e-02	3.7681888e-02
-4.9890616e-02	3.7571043e-02
-4.9464791e-02	3.7439612e-02
-4.9027062e-02	3.7286110e-02
-4.8578029e-02	3.7109305e-02
-4.8118351e-02	3.6907024e-02
-4.7666950e-02	3.6688005e-02
-4.7241311e-02	3.6463268e-02
-4.6839923e-02	3.6234665e-02
-4.6461267e-02	3.6003784e-02
-4.6103858e-02	3.5771989e-02
-4.5766268e-02	3.5540409e-02
-4.5447151e-02	3.5310178e-02
-4.5145257e-02	3.5082247e-02
-4.4859420e-02	3.4857484e-02
-4.4588561e-02	3.4636719e-02
-4.4331695e-02	3.4420441e-02
-4.4087910e-02	3.4209063e-02
-4.3856368e-02	3.4002881e-02
-4.3636297e-02	3.3802102e-02
-4.3426992e-02	3.3606829e-02
-4.3227803e-02	3.3417147e-02
-4.3038130e-02	3.3233098e-02
-4.2857419e-02	3.3054467e-02
-4.2685157e-02	3.2881321e-02
-4.2520870e-02	3.2713757e-02
-4.2374540e-02	3.2562537e-02
-4.2225449e-02	3.2406582e-02
-4.2073548e-02	3.2245761e-02
-4.1918788e-02	3.2079325e-02
-4.1761115e-02	3.1907745e-02
-4.1600476e-02	3.1730920e-02
-4.1436814e-02	3.1548735e-02
-4.1270069e-02	3.1361063e-02
-4.1100180e-02	3.1167753e-02
-4.0927083e-02	3.0968676e-02
-4.0750709e-02	3.0763657e-02
-4.0570990e-02	3.0552544e-02
-4.0387853e-02	3.0335175e-02
-4.0201222e-02	3.0111377e-02
-4.0011017e-02	2.9880990e-02
-3.9817152e-02	2.9643834e-02
-3.9619538e-02	2.9399754e-02
-3.9418083e-02	2.9148573e-02
-3.9212688e-02	2.8890108e-02
-3.9003251e-02	2.8624192e-02
-3.8789661e-02	2.8350641e-02
-3.8571802e-02	2.8069287e-02
-3.8349556e-02	2.7779949e-02
-3.8122792e-02	2.7482432e-02
-3.7891375e-02	2.7176581e-02
-3.7655160e-02	2.6862215e-02
-3.7413994e-02	2.6539129e-02
-3.7167714e-02	2.6207164e-02
-3.6916148e-02	2.5866121e-02
-3.6659112e-02	2.5515809e-02
-3.6396408e-02	2.5156034e-02
-3.6127826e-02	2.4786602e-02
-3.5853145e-02	2.4407327e-02
-3.5572126e-02	2.4018037e-02
-3.5284514e-02	2.3618583e-02
-3.4990031e-02	2.3208784e-02
-3.4688381e-02	2.2788499e-02
-3.4379248e-02	2.2357550e-02
-3.4062290e-02	2.1915812e-02
-3.3737139e-02	2.1463084e-02
-3.3411640e-02	2.1010650e-02
-3.3093673e-02	2.0569746e-02
-3.2782920e-02	2.0140188e-02
-3.2479089e-02	1.9721784e-02
-3.2181911e-02	1.9314313e-02
-3.1891135e-02	1.8917577e-02
-3.1606529e-02	1.8531389e-02
-3.1327879e-02	1.8155520e-02
-3.1054986e-02	1.7789254e-02
-3.0787668e-02	1.7432896e-02
-3.0525752e-02	1.7086239e-02
-3.0269072e-02	1.6749074e-02
-3.0017478e-02	1.6421191e-02
-2.9770829e-02	1.6102379e-02
-2.9528992e-02	1.5792431e-02
-2.9291842e-02	1.5491143e-02
-2.9059259e-02	1.5198311e-02
-2.8831135e-02	1.4913734e-02
-2.8607364e-02	1.4637214e-02
-2.8387847e-02	1.4368555e-02
-2.8172487e-02	1.4107565e-02
-2.7961196e-02	1.3854055e-02
-2.7753891e-02	1.3607835e-02
-2.7550489e-02	1.3368723e-02
-2.7350912e-02	1.3136537e-02
-2.7155087e-02	1.2911101e-02
-2.6962940e-02	1.2692240e-02
-2.6774405e-02	1.2479783e-02
-2.6589416e-02	1.2273561e-02
-2.6407913e-02	1.2073406e-02
-2.6229835e-02	1.1879155e-02
-2.6055123e-02	1.1690652e-02
-2.5883717e-02	1.1507741e-02
-2.5715560e-02	1.1330272e-02
-2.5550600e-02	1.1158096e-02
-2.5388785e-02	1.0991063e-02
-2.5230066e-02	1.0829032e-02
-2.5074393e-02	1.0671860e-02
-2.4921719e-02	1.0519410e-02
-2.4771996e-02	1.0371548e-02
-2.4629455e-02	1.0232299e-02
-2.4486879e-02	1.0094507e-02
-2.4344263e-02	9.9581804e-03
-2.4201605e-02	9.8233236e-03
-2.4058899e-02	9.6899433e-03
-2.3916142e-02	9.5580453e-03
-2.3773331e-02	9.4276355e-03
-2.3630464e-02	9.2987189e-03
-2.3487540e-02	9.1713004e-03
-2.3344557e-02	9.0453843e-03
-2.3201514e-02	8.9209760e-03
-2.3058409e-02	8.7980816e-03
-2.2915241e-02	8.6767071e-03
-2.2772009e-02	8.5568581e-03
-2.2628714e-02	8.4385392e-03
-2.2485356e-02	8.3217548e-03
-2.2341936e-02	8.2065087e-03
-2.2198457e-02	8.0928051e-03
-2.2054919e-02	7.9806487e-03
-2.1911324e-02	7.8700437e-03
-2.1767675e-02	7.7609943e-03
-2.1623974e-02	7.6535053e-03
-2.1480223e-02	7.5475816e-03
-2.1336425e-02	7.4432275e-03
-2.1192583e-02	7.3404456e-03
-2.1048705e-02	7.2392364e-03
-2.0904796e-02	7.1396003e-03
-2.0760863e-02	7.0415376e-03
-2.0616911e-02	6.9450505e-03
-2.0472945e-02	6.8501416e-03
-2.0328971e-02	6.7568130e-03
-2.0184996e-02	6.6650655e-03
-2.0041027e-02	6.5748986e-03
-1.9897071e-02	6.4863114e-03
-1.9753138e-02	6.3993026e-03
-1.9609236e-02	6.3138699e-03
-1.9465375e-02	6.2300109e-03
-1.9321563e-02	6.1477225e-03
-1.9177810e-02	6.0670010e-03
-1.9034127e-02	5.9878418e-03
-1.8890524e-02	5.9102399e-03
-1.8747012e-02	5.8341902e-03
-1.8603600e-02	5.7596872e-03
-1.8460300e-02	5.6867250e-03
-1.8317122e-02	5.6152975e-03
-1.8174079e-02	5.5453966e-03
-1.8031182e-02	5.4770125e-03
-1.7888443e-02	5.4101351e-03
-1.7745875e-02	5.3447543e-03
-1.7603489e-02	5.2808595e-03
-1.7461299e-02	5.2184399e-03
-1.7319314e-02	5.1574846e-03
-1.7177550e-02	5.0979802e-03
-1.7036017e-02	5.0399112e-03
-1.6894730e-02	4.9832624e-03
-1.6753700e-02	4.9280185e-03
-1.6612941e-02	4.8741643e-03
-1.6472463e-02	4.8216848e-03
-1.6332279e-02	4.7705651e-03
-1.6192400e-02	4.7207896e-03
-1.6052836e-02	4.6723423e-03
-1.5913600e-02	4.6252073e-03
-1.5774702e-02	4.5793677e-03
-1.5636154e-02	4.5348021e-03
-1.5497969e-02	4.4914876e-03
-1.5360157e-02	4.4494016e-03
-1.5222730e-02	4.4085233e-03
-1.5085698e-02	4.3688350e-03
-1.4949068e-02	4.3303191e-03
-1.4812851e-02	4.2929580e-03
-1.4677055e-02	4.2567291e-03
-1.4541691e-02	4.2216067e-03
-1.4406768e-02	4.1875655e-03
-1.4272296e-02	4.1545815e-03
-1.4138281e-02	4.1226354e-03
-1.4004731e-02	4.0917091e-03
-1.3871652e-02	4.0617850e-03
-1.3739051e-02	4.0328425e-03
-1.3606934e-02	4.0048552e-03
-1.3475310e-02	3.9777963e-03
-1.3328968e-02	3.9486550e-03
-1.3183171e-02	3.9205920e-03
-1.3037927e-02	3.8935849e-03
-1.2893241e-02	3.8676121e-03
-1.2749119e-02	3.8426497e-03
-1.2605568e-02	3.8186651e-03
-1.2462597e-02	3.7956247e-03
-1.2320210e-02	3.7734953e-03
-1.2178415e-02	3.7522464e-03
-1.2037215e-02	3.7318491e-03
-1.1896615e-02	3.7122753e-03
-1.1756619e-02	3.6934987e-03
-1.1617230e-02	3.6754985e-03
-1.1478450e-02	3.6582555e-03
-1.1340280e-02	3.6417505e-03
-1.1202725e-02	3.6259578e-03
-1.1065785e-02	3.6108443e-03
-1.0929466e-02	3.5963768e-03
-1.0793768e-02	3.5825245e-03
-1.0658692e-02	3.5692663e-03
-1.0524239e-02	3.5565858e-03
-1.0390410e-02	3.5444671e-03
-1.0257203e-02	3.5328923e-03
-1.0124619e-02	3.5218379e-03
-9.9926591e-03	3.5112791e-03
-9.8613227e-03	3.5011922e-03
-9.7306096e-03	3.4915548e-03
-9.6005193e-03	3.4823470e-03
-9.4710509e-03	3.4735496e-03
-9.3422035e-03	3.4651437e-03
-9.2139757e-03	3.4571135e-03
-9.0863661e-03	3.4494459e-03
-8.9593731e-03	3.4421283e-03
-8.8329949e-03	3.4351482e-03
-8.7072299e-03	3.4284892e-03
-8.5820766e-03	3.4221317e-03
-8.4575336e-03	3.4160562e-03
-8.3335990e-03	3.4102440e-03
-8.2102711e-03	3.4046774e-03
-8.0875478e-03	3.3993397e-03
-7.9654271e-03	3.3942147e-03
-7.8439068e-03	3.3892870e-03
-7.7229844e-03	3.3845496e-03
-7.6026573e-03	3.3800041e-03
-7.4829225e-03	3.3756527e-03
-7.3637773e-03	3.3714973e-03
-7.2452191e-03	3.3675290e-03
-7.1272460e-03	3.3637213e-03
-7.0098562e-03	3.3600467e-03
-6.8930476e-03	3.3564787e-03
-6.7768181e-03	3.3529981e-03
-6.6611646e-03	3.3496095e-03
-6.5460842e-03	3.3463217e-03
-6.4315738e-03	3.3431436e-03
-6.3176303e-03	3.3400818e-03
-6.2042512e-03	3.3371274e-03
-6.0914342e-03	3.3342628e-03
-5.9791770e-03	3.3314713e-03
-5.8674772e-03	3.3287362e-03
-5.7563323e-03	3.3260481e-03
-5.6457396e-03	3.3234087e-03
-5.5356962e-03	3.3208210e-03
-5.4261993e-03	3.3182877e-03
-5.3172462e-03	3.3158103e-03
-5.2088343e-03	3.3133823e-03
-5.1009611e-03	3.3109932e-03
-4.9936242e-03	3.3086328e-03
-4.8868212e-03	3.3062911e-03
-4.7805496e-03	3.3039622e-03
-4.6748065e-03	3.3016507e-03
-4.5695893e-03	3.2993625e-03
-4.4648951e-03	3.2971035e-03
-4.3607213e-03	3.2948795e-03
-4.2570653e-03	3.2926901e-03
-4.1539247e-03	3.2905272e-03
-4.0512970e-03	3.2883825e-03
-3.9491799e-03	3.2862477e-03
-3.8475711e-03	3.2841153e-03
-3.7464679e-03	3.2819853e-03
-3.6458678e-03	3.2798645e-03
-3.5457680e-03	3.2777598e-03
-3.4461660e-03	3.2756779e-03
-3.3470592e-03	3.2736251e-03
-3.2484450e-03	3.2716014e-03
-3.1503212e-03	3.2696014e-03
-3.0526853e-03	3.2676199e-03
-2.9555352e-03	3.2656516e-03
-2.8588684e-03	3.2636916e-03
-2.7626825e-03	3.2617407e-03
-2.6669750e-03	3.2598066e-03
-2.5717434e-03	3.2578972e-03
-2.4769852e-03	3.2560200e-03
-2.3826978e-03	3.2541824e-03
-2.2888789e-03	3.2523883e-03
-2.1955262e-03	3.2506341e-03
-2.1026373e-03	3.2489154e-03
-2.0102101e-03	3.2472276e-03
-1.9182423e-03	3.2455666e-03
-1.8267318e-03	3.2439296e-03
-1.7356760e-03	3.2423243e-03
-1.6450728e-03	3.2407628e-03
-1.5549196e-03	3.2392569e-03
-1.4652141e-03	3.2378179e-03
-1.3759541e-03	3.2364569e-03
-1.2871373e-03	3.2351758e-03
-1.1987601e-03	3.2339607e-03
-1.1108228e-03	3.2327964e-03
-1.0233226e-03	3.2316684e-03
-9.3625798e-04	3.2305622e-03
-8.4962476e-04	3.2294663e-03
-7.6342401e-04	3.2284084e-03
-6.7765041e-04	3.2274457e-03
-5.9230202e-04	3.2266352e-03
-5.0737657e-04	3.2260317e-03
-4.2287171e-04	3.2256885e-03
-3.3878859e-04	3.2256473e-03
-2.5512155e-04	3.2258555e-03
-1.7187224e-04	3.2262119e-03
-8.9038030e-05	3.2266174e-03
-6.6143242e-06	3.2269760e-03
6.7675721e-05	3.2271983e-03
1.4270865e-04	3.2273552e-03
2.1849172e-04	3.2275048e-03
2.9503233e-04	3.2277091e-03
3.7233788e-04	3.2280321e-03
4.5041588e-04	3.2285008e-03
5.2927400e-04	3.2291031e-03
6.0891991e-04	3.2298244e-03
6.8936137e-04	3.2306489e-03
7.7060622e-04	3.2315683e-03
8.5266230e-04	3.2325890e-03
9.3553758e-04	3.2337195e-03
1.0192401e-03	3.2349684e-03
1.1037779e-03	3.2363428e-03
1.1891592e-03	3.2378450e-03
1.2753922e-03	3.2394770e-03
1.3624853e-03	3.2412411e-03
1.4504464e-03	3.2431631e-03
1.5392823e-03	3.2452964e-03
1.6290021e-03	3.2476368e-03
1.7196152e-03	3.2501558e-03
1.8111310e-03	3.2528233e-03
1.9035593e-03	3.2556098e-03
1.9969088e-03	3.2585192e-03
2.0911877e-03	3.2615796e-03
2.1864043e-03	3.2648209e-03
2.2825671e-03	3.2682681e-03
2.3796854e-03	3.2719181e-03
2.4777691e-03	3.2757597e-03
2.5768279e-03	3.2797814e-03
2.6768715e-03	3.2839832e-03
2.7779093e-03	3.2883733e-03
2.8799506e-03	3.2929604e-03
2.9830052e-03	3.2977508e-03
3.0870828e-03	3.3027486e-03
3.1921933e-03	3.3079577e-03
3.2983466e-03	3.3133833e-03
3.4055527e-03	3.3190318e-03
3.5138216e-03	3.3249099e-03
3.6231635e-03	3.3310240e-03
3.7335884e-03	3.3373804e-03
3.8451069e-03	3.3439853e-03
3.9577292e-03	3.3508438e-03
4.0714660e-03	3.3579607e-03
4.1863281e-03	3.3653411e-03
4.3023260e-03	3.3729905e-03
4.4194707e-03	3.3809142e-03
4.5377731e-03	3.3891184e-03
4.6572441e-03	3.3976091e-03
4.7778948e-03	3.4063929e-03
4.8997365e-03	3.4154771e-03
5.0227802e-03	3.4248680e-03
5.1470375e-03	3.4345711e-03
5.2725200e-03	3.4445918e-03
5.3992392e-03	3.4549368e-03
5.5272068e-03	3.4656131e-03
5.6564346e-03	3.4766265e-03
5.7869347e-03	3.4879825e-03
5.9187192e-03	3.4996864e-03
6.0518004e-03	3.5117439e-03
6.1861904e-03	3.5241611e-03
6.3219017e-03	3.5369453e-03
6.4589469e-03	3.5501013e-03
6.5973394e-03	3.5636289e-03
6.7370922e-03	3.5775307e-03
6.8782177e-03	3.5918182e-03
7.0207288e-03	3.6065007e-03
7.1646391e-03	3.6215788e-03
7.3099625e-03	3.6370542e-03
7.4567121e-03	3.6529354e-03
7.6049016e-03	3.6692294e-03
7.7545450e-03	3.6859386e-03
7.9056569e-03	3.7030631e-03
8.0582523e-03	3.7206012e-03
8.2123458e-03	3.7385552e-03
8.3679515e-03	3.7569337e-03
8.5250837e-03	3.7757445e-03
8.6837571e-03	3.7949933e-03
8.8439886e-03	3.8146691e-03
9.0057959e-03	3.8347566e-03
9.1691927e-03	3.8552733e-03
9.3341928e-03	3.8762390e-03
9.5008132e-03	3.8976459e-03
9.6690716e-03	3.9194855e-03
9.8389850e-03	3.9417556e-03
1.0010570e-02	3.9644565e-03
1.0183844e-02	3.9875894e-03
1.0358823e-02	4.0111573e-03
1.0535525e-02	4.0351616e-03
1.0713967e-02	4.0596009e-03
1.0894167e-02	4.0844777e-03
1.1076142e-02	4.1097981e-03
1.1259910e-02	4.1355589e-03
1.1445492e-02	4.1617561e-03
1.1632904e-02	4.1883920e-03
1.1822165e-02	4.2154701e-03
1.2013293e-02	4.2429925e-03
1.2206310e-02	4.2709547e-03
1.2401233e-02	4.2993520e-03
1.2598084e-02	4.3281829e-03
1.2796882e-02	4.3574525e-03
1.2997645e-02	4.3871706e-03
1.3200391e-02	4.4173478e-03
1.3405144e-02	4.4479621e-03
1.3611929e-02	4.4789947e-03
1.3820760e-02	4.5104761e-03
1.4031658e-02	4.5424140e-03
1.4244646e-02	4.5747958e-03
1.4459748e-02	4.6076083e-03
1.4676981e-02	4.6408742e-03
1.4896367e-02	4.6746043e-03
1.5117934e-02	4.7087569e-03
1.5341699e-02	4.7433603e-03
1.5567684e-02	4.7784275e-03
1.5795917e-02	4.8139199e-03
1.6026415e-02	4.8498795e-03
1.6259202e-02	4.8863011e-03
1.6494307e-02	4.9231491e-03
1.6731747e-02	4.9604670e-03
1.6971548e-02	4.9982402e-03
1.7213738e-02	5.0364564e-03
1.7458335e-02	5.0751426e-03
1.7705367e-02	5.1142899e-03
1.7954858e-02	5.1536551e-03
1.8206835e-02	5.1933058e-03
1.8461321e-02	5.2334043e-03
1.8718341e-02	5.2739931e-03
1.8977923e-02	5.3149921e-03
1.9240092e-02	5.3564924e-03
1.9504873e-02	5.3984069e-03
1.9772294e-02	5.4408268e-03
2.0042383e-02	5.4836654e-03
2.0315166e-02	5.5270154e-03
2.0590669e-02	5.5707794e-03
2.0868919e-02	5.6150446e-03
2.1149946e-02	5.6597381e-03
2.1433778e-02	5.7049554e-03
2.1720443e-02	5.7506102e-03
2.2009970e-02	5.7968027e-03
2.2302386e-02	5.8434216e-03
2.2597721e-02	5.8905646e-03
2.2896005e-02	5.9381367e-03
2.3197268e-02	5.9862111e-03
2.3501542e-02	6.0348346e-03
2.3808854e-02	6.0839167e-03
2.4119235e-02	6.1335386e-03
2.4432715e-02	6.1836017e-03
2.4749330e-02	6.2342151e-03
2.5069106e-02	6.2852873e-03
2.5392067e-02	6.3369735e-03
2.5733203e-02	6.3914737e-03
2.6077047e-02	6.4464948e-03
2.6423647e-02	6.5018967e-03
2.6773015e-02	6.5576682e-03
2.7125178e-02	6.6139421e-03
2.7480156e-02	6.6706769e-03
2.7837972e-02	6.7279173e-03
2.8198648e-02	6.7856092e-03
2.8562208e-02	6.8436738e-03
2.8928676e-02	6.9022295e-03
2.9298074e-02	6.9612407e-03
2.9670426e-02	7.0206456e-03
3.0045756e-02	7.0805826e-03
3.0424086e-02	7.1409862e-03
3.0805442e-02	7.2017962e-03
3.1189849e-02	7.2631508e-03
3.1577328e-02	7.3249945e-03
3.1967906e-02	7.3872647e-03
3.2361609e-02	7.4500914e-03
3.2758460e-02	7.5134002e-03
3.3158478e-02	7.5772329e-03
3.3561758e-02	7.6411829e-03
3.3967736e-02	7.7058745e-03
3.4377299e-02	7.7708908e-03
3.4790742e-02	7.8365955e-03
3.5207202e-02	7.9044765e-03
3.5626697e-02	7.9738586e-03
3.6049541e-02	8.0424401e-03
3.6475876e-02	8.1090800e-03
3.6905653e-02	8.1745769e-03
3.7338838e-02	8.2411556e-03
3.7775470e-02	8.3100238e-03
3.8215597e-02	8.3811227e-03
3.8659252e-02	8.4532606e-03
3.9106454e-02	8.5254632e-03
3.9557230e-02	8.5974088e-03
4.0011611e-02	8.6696983e-03
4.0469626e-02	8.7424730e-03
4.0931304e-02	8.8160195e-03
4.1396673e-02	8.8902315e-03
4.1865764e-02	8.9649111e-03
4.2338606e-02	9.0401528e-03
4.2815230e-02	9.1160678e-03
4.3295664e-02	9.1924895e-03
4.3779941e-02	9.2695208e-03
4.4268090e-02	9.3472478e-03
4.4760143e-02	9.4255270e-03
4.5256130e-02	9.5044994e-03
4.5756084e-02	9.5839875e-03
4.6260036e-02	9.6640843e-03
4.6768018e-02	9.7449211e-03
4.7280060e-02	9.8262829e-03
4.7796197e-02	9.9083746e-03
4.8316473e-02	9.9910054e-03
4.8840901e-02	1.0074277e-02
4.9369476e-02	1.0158269e-02
4.9902255e-02	1.0242942e-02
5.0439333e-02	1.0328115e-02
5.0980740e-02	1.0414064e-02
5.1526474e-02	1.0500704e-02
5.2076567e-02	1.0588251e-02
5.2631060e-02	1.0676849e-02
5.3189988e-02	1.0766125e-02
5.3753385e-02	1.0855903e-02
5.4321287e-02	1.0946032e-02
5.4893730e-02	1.1036680e-02
5.5470751e-02	1.1127812e-02
5.6052386e-02	1.1219701e-02
5.6638672e-02	1.1312540e-02
5.7229646e-02	1.1406112e-02
5.7825345e-02	1.1500474e-02
5.8425809e-02	1.1595717e-02
5.9031074e-02	1.1691580e-02
5.9641179e-02	1.1788164e-02
6.0256161e-02	1.1885603e-02
6.0876063e-02	1.1983693e-02
6.1500921e-02	1.2082556e-02
6.2130775e-02	1.2182275e-02
6.2765666e-02	1.2282688e-02
6.3405633e-02	1.2383983e-02
6.4050717e-02	1.2485965e-02
6.4700961e-02	1.2588846e-02
6.5356404e-02	1.2692415e-02
6.6017087e-02	1.2796916e-02
6.6683054e-02	1.2902125e-02
6.7354345e-02	1.3008258e-02
6.8031004e-02	1.3115133e-02
6.8713074e-02	1.3222955e-02
6.9400598e-02	1.3331501e-02
7.0093619e-02	1.3441016e-02
7.0792182e-02	1.3551280e-02
7.1496331e-02	1.3662401e-02
7.2206109e-02	1.3774500e-02
7.2921564e-02	1.3887371e-02
7.3642740e-02	1.4001229e-02
7.4369681e-02	1.4115879e-02
7.5102435e-02	1.4231424e-02
7.5841048e-02	1.4347964e-02
7.6585568e-02	1.4465334e-02
7.7336041e-02	1.4583712e-02
7.8092514e-02	1.4702909e-02
7.8855035e-02	1.4823161e-02
7.9623653e-02	1.4944246e-02
8.0398418e-02	1.5066273e-02
8.1179377e-02	1.5189246e-02
8.1966581e-02	1.5313313e-02
8.2760078e-02	1.5438236e-02
8.3559921e-02	1.5564113e-02
8.4366160e-02	1.5691109e-02
8.5178844e-02	1.5818985e-02
8.5998027e-02	1.5947846e-02
8.6823761e-02	1.6077837e-02
8.7656093e-02	1.6208739e-02
8.8495083e-02	1.6340771e-02
8.9340781e-02	1.6473717e-02
9.0193240e-02	1.6607693e-02
9.1052518e-02	1.6742849e-02
9.1918666e-02	1.6878945e-02
9.2791735e-02	1.7016097e-02
9.3671788e-02	1.7154449e-02
9.4558877e-02	1.7293766e-02
9.5453058e-02	1.7434170e-02
9.6354391e-02	1.7575677e-02
9.7262929e-02	1.7718413e-02
9.8178729e-02	1.7862133e-02
9.9101853e-02	1.8006971e-02
1.0003236e-01	1.8153065e-02
1.0097030e-01	1.8300184e-02
1.0191575e-01	1.8448450e-02
1.0286875e-01	1.8598014e-02
1.0382937e-01	1.8748670e-02
1.0479768e-01	1.8900462e-02
1.0577372e-01	1.9053440e-02
1.0675757e-01	1.9207613e-02
1.0774929e-01	1.9362999e-02
1.0874893e-01	1.9519720e-02
1.0975655e-01	1.9677543e-02
1.1077230e-01	1.9836426e-02
1.1179591e-01	1.9996810e-02
1.1282849e-01	2.0157800e-02
1.1376757e-01	2.0305489e-02
1.1470952e-01	2.0452572e-02
1.1565297e-01	2.0600324e-02
1.1659845e-01	2.0748212e-02
1.1754570e-01	2.0896432e-02
1.1849486e-01	2.1044972e-02
1.1944598e-01	2.1193720e-02
1.2039898e-01	2.1342558e-02
1.2135388e-01	2.1491643e-02
1.2231069e-01	2.1640865e-02
1.2326941e-01	2.1790204e-02
1.2423004e-01	2.1939745e-02
1.2519259e-01	2.2089616e-02
1.2615706e-01	2.2239961e-02
1.2712346e-01	2.2390721e-02
1.2809177e-01	2.2542145e-02
1.2906203e-01	2.2694087e-02
1.3003423e-01	2.2846446e-02
1.3100836e-01	2.2999105e-02
1.3198444e-01	2.3151851e-02
